time,motor_voltage,qei.omega,qei.theta
0,0,0,0
0.01,0,0,0
0.02,0.107622966,0,0
0.029,0.171673447,0,0
0.04,0.236260608,0,0
0.048,0.301372737,0,0
0.057,0.360412359,0,0
0.064,0.413233131,0,0
0.073,0.466367871,0,0
0.081,0.519809484,0,0
0.089,0.573550582,0,0
0.097,0.634358048,0,0
0.104,0.681901038,0,0
0.11,0.736494482,0,0
0.115,0.777615666,0,0
0.122,0.811995804,0,0
0.128,0.867210984,0,0
0.135,0.901846409,0,0
0.142,0.950493813,0,0
0.15,0.999319494,0,0
0.158,1.055330276,0,0
0.165,1.111555815,0,0
0.171,1.153859496,0,0
0.178,1.196273923,0,0
0.185,1.252990723,0,0
0.192,1.302764177,0,0
0.199,1.35266614,0,0
0.205,1.402689219,0,0
0.214,1.445656538,0,0
0.226,1.517439842,0,0
0.236,1.596623778,0,0
0.244,1.668784738,0,0
0.255,1.726616263,0,0
0.264,1.799012303,0,0
0.274,1.864249706,0,0.000920389
0.283,1.93680048,0,0.00245437
0.292,2.0093925,0,0.003988351
0.3,2.074736595,1.533980846,0.005829129
0.309,2.132811546,0,0.006442722
0.317,2.190862179,0,0.007363111
0.325,2.256120682,0,0.007976703
0.332,2.314067125,0,0.008897092
0.339,2.364710093,1.533980846,0.010124277
0.347,2.41528511,0,0.011658258
0.354,2.465780735,0,0.01319224
0.362,2.523378372,0,0.014419425
0.369,2.580840111,1.533980846,0.015953406
0.376,2.630993843,0,0.017180592
0.383,2.681018114,1.533980846,0.019021369
0.39,2.723783493,1.533980846,0.021168943
0.398,2.78062892,1.533980846,0.023009721
0.405,2.837256432,1.533980846,0.024850499
0.411,2.886612177,0,0.02638448
0.416,2.928763151,0,0.028225258
0.422,2.963773966,0,0.029759239
0.428,3.005642176,0,0.031600017
0.434,3.047344446,0,0.033747591
0.442,3.088872194,0,0.035895165
0.448,3.143956184,0,0.037735942
0.453,3.185043573,0,0.039883516
0.459,3.219128132,0,0.041417498
0.465,3.259835958,1.533980846,0.044178664
0.471,3.300324202,0,0.045712646
0.477,3.340584278,1.533980846,0.04786022
0.482,3.380606651,0,0.049700997
0.486,3.413770914,0,0.051541775
0.493,3.440175295,0,0.054302942
0.499,3.479563951,0,0.056450516
0.505,3.518682957,1.533980846,0.059211682
0.511,3.557523012,0,0.061359234
0.516,3.596074343,0,0.064427159
0.523,3.634327888,0,0.067188292
0.528,3.672273636,0,0.069949425
0.534,3.709902048,0,0.072403766
0.541,3.747203588,1.533980846,0.075778484
0.547,3.790295601,1.533980846,0.07884641
0.553,3.826854944,0,0.081607543
0.56,3.863056421,0,0.085902638
0.57,3.904825211,0,0.091424904
0.58,3.963594198,0,0.096026793
0.59,4.021261215,1.533980846,0.101855851
0.599,4.07777977,0,0.10645774
0.609,4.133101463,0,0.111366421
0.617,4.181828976,0,0.115968309
0.625,4.22426796,0,0.121490575
0.635,4.265858173,1.533980846,0.12639936
0.643,4.316614151,1.533980846,0.13100136
0.651,4.351305485,0,0.136216961
0.659,4.394864082,1.533980846,0.141125761
0.667,4.432569504,0,0.146034561
0.673,4.469295025,1.533980846,0.148795761
0.678,4.496181011,1.533980846,0.151556961
0.682,4.513785839,0,0.154318161
0.686,4.535427094,1.533980846,0.157079361
0.69,4.552444458,0,0.159840561
0.695,4.573341846,0,0.163828961
0.701,4.589756012,1.533980846,0.167817361
0.708,4.613863945,1.533980846,0.173339762
0.716,4.641198158,0,0.178248562
0.723,4.671374321,0,0.182850562
0.728,4.696828365,0,0.186225362
0.734,4.714457512,0,0.190520562
0.739,4.734994888,0,0.194202162
0.744,4.751587868,1.533980846,0.197576962
0.748,4.767700195,1.533980846,0.200951762
0.754,4.783326149,0,0.205246962
0.76,4.79845953,0,0.209235362
0.765,4.815960407,1.533980846,0.212303363
0.769,4.827224255,0,0.215064563
0.773,4.840843678,0,0.217518963
0.776,4.851367474,1.533980846,0.220280163
0.78,4.859041691,0,0.222734563
0.783,4.868979931,1.533980846,0.225802563
0.787,4.878579617,1.533980846,0.228563763
0.791,4.88555479,0,0.231938563
0.796,4.894554615,0,0.235926963
0.802,4.905315399,0,0.240835763
0.808,4.917504787,0,0.245744563
0.815,4.928894997,1.533980846,0.251266755
0.821,4.941161156,0,0.255561746
0.826,4.950787544,0,0.259243168
0.832,4.958176136,1.533980846,0.263844944
0.837,4.964982986,1.533980846,0.26721958
0.841,4.972375393,0,0.269980646
0.844,4.976830006,0,0.272434927
0.848,4.980901241,0,0.275502808
0.852,4.983702183,0,0.278570659
0.857,4.98709774,1.533980846,0.282865651
0.862,4.990793228,0,0.287160642
0.867,4.99387455,0,0.290228493
0.871,4.996335506,0,0.292989559
0.875,4.99785471,0,0.296364195
0.879,4.998971462,0,0.299738832
0.884,4.99968338,0,0.303420253
0.888,4.999988079,0,0.307101674
0.893,4.999674797,1.533980846,0.310783095
0.899,4.998950005,1.533980846,0.315691657
0.905,4.99708128,1.533980846,0.320293434
0.912,4.994268417,1.533980846,0.32550878
0.918,4.990503788,0,0.330417342
0.924,4.984898567,0,0.334405549
0.929,4.979045391,1.533980846,0.339620895
0.935,4.973422527,1.533980846,0.343915887
0.941,4.965775013,0,0.347904093
0.946,4.958647251,1.533980846,0.352199085
0.95,4.94918251,0,0.355266936
0.954,4.942317009,0,0.358641572
0.96,4.933106422,1.533980846,0.363243349
0.965,4.923194408,0,0.3669248
0.97,4.912577152,0,0.370299436
0.974,4.901250839,0,0.373367317
0.978,4.891677856,0,0.376435168
0.982,4.88164711,1.533980846,0.379809804
0.986,4.871157646,1.533980846,0.382877655
0.99,4.860207558,0,0.385945506
0.995,4.848795414,1.533980846,0.390547283
0.999,4.833878517,1.533980846,0.394228704
1.005,4.821421623,0,0.398830481
1.012,4.805193901,1.533980846,0.404966213
1.019,4.774138927,0,0.408954419
1.024,4.755856514,1.533980846,0.41324941
1.029,4.732943058,1.533980846,0.417544402
1.035,4.713034153,0,0.421532608
1.041,4.688162327,1.533980846,0.428281881
1.051,4.662218571,0,0.434110798
1.057,4.616588116,1.533980846,0.439019359
1.066,4.587771416,0,0.444848276
1.074,4.542518139,1.533980846,0.451290793
1.081,4.505635738,1.533980846,0.456199355
1.088,4.461675644,1.533980846,0.461721487
1.097,4.421626091,0,0.468470759
1.107,4.367960453,0,0.474299676
1.117,4.311849594,1.533980846,0.482276089
1.127,4.239951611,1.533980846,0.488411821
1.136,4.164409637,1.533980846,0.494240738
1.144,4.107187748,1.533980846,0.499456085
1.152,4.04804945,0,0.503137506
1.157,3.987001419,1.533980846,0.506512142
1.161,3.947880268,0,0.508966423
1.166,3.908018351,0,0.512034274
1.171,3.875597,0,0.515408911
1.176,3.834407568,0,0.518476762
1.181,3.784012079,1.533980846,0.521544613
1.187,3.749830484,0,0.525226034
1.192,3.706448555,1.533980846,0.52860067
1.199,3.6534338,0,0.532282091
1.204,3.599381924,1.533980846,0.535963513
1.211,3.544298649,1.533980846,0.539031364
1.216,3.488191128,0,0.542099215
1.223,3.431066275,1.533980846,0.546087421
1.229,3.363145351,0,0.548848487
1.235,3.303843498,1.533980846,0.551609553
1.24,3.243550062,0,0.554063834
1.245,3.202807903,0,0.556518115
1.25,3.140882015,1.533980846,0.558972396
1.255,3.08853817,0,0.560813106
1.26,3.035528898,0,0.563267387
1.264,2.981860161,0,0.564801313
1.268,2.938454628,0,0.566948808
1.274,2.894634247,1.533980846,0.569403089
1.279,2.839280844,1.533980846,0.571550585
1.284,2.772017956,1.533980846,0.573391296
1.288,2.715274811,1.533980846,0.574925221
1.292,2.657911539,0,0.576152362
1.297,2.623199224,0,0.578299857
1.304,2.56485939,1.533980846,0.581060923
1.31,2.482177496,1.533980846,0.582901634
1.317,2.410387993,0,0.58504913
1.324,2.325581551,0,0.587196625
1.33,2.227301836,0,0.589037336
1.336,2.16515708,0,0.590571262
1.341,2.089867592,0,0.591798402
1.345,2.026541471,0,0.593025543
1.35,1.975504637,0,0.593945898
1.354,1.911247134,0,0.595173038
1.358,1.859478235,1.533980846,0.595786608
1.362,1.807392716,0,0.596706964
1.367,1.754995823,0,0.597627319
1.372,1.689070225,0,0.598547674
1.378,1.635993123,0,0.59946803
1.384,1.54240644,0,0.600388385
1.388,1.475026488,0,0.601001955
1.395,1.407216311,0,0.601615526
1.401,1.311581612,1.533980846,0.602535881
1.407,1.228981376,0,0.602842666
1.412,1.145824432,0,0.603149451
1.419,1.076117516,0,0.603763021
1.425,0.97792846,0,0.603763021
1.431,0.907383263,0,0.604069806
1.438,0.808074176,0,0.604069806
1.443,0.708162367,0,0.604069806
1.448,0.636448979,0,0.604069806
1.453,0.564461708,0,0.604069806
1.457,0.492215097,0,0.604069806
1.461,0.434240818,0,0.604069806
1.465,0.376117438,0,0.604069806
1.469,0.317852616,0,0.604069806
1.473,0.259454072,0,0.604069806
1.479,0.200929582,0,0.604069806
1.484,0.112924054,0,0.604069806
1.49,0.024679938,0,0.604069806
1.495,-0.034268539,0,0.604069806
1.5,-0.122849353,0,0.604069806
1.506,-0.19679381,0,0.604069806
1.512,-0.285655171,0,0.604069806
1.518,-0.37462908,0,0.604069806
1.525,-0.463686556,0,0.604069806
1.533,-0.552798212,0,0.604069806
1.545,-0.686502218,0,0.604069806
1.554,-0.849844396,0,0.604069806
1.563,-0.998117685,0,0.604069806
1.571,-1.131261468,0,0.604069806
1.578,-1.249281406,0,0.604069806
1.583,-1.35223186,0,0.604069806
1.591,-1.425556779,0,0.604069806
1.599,-1.542458177,0,0.604069806
1.608,-1.658776283,0,0.604069806
1.617,-1.788839221,0,0.604069806
1.624,-1.917951345,0,0.604069806
1.631,-2.017641544,0,0.604069806
1.638,-2.116633892,0,0.604069806
1.646,-2.214873791,0,0.604069806
1.652,-2.326156855,0,0.604069806
1.658,-2.408878565,0,0.604069806
1.664,-2.490926504,0,0.604069806
1.669,-2.558760643,0,0.604069806
1.673,-2.626082659,0,0.604069806
1.679,-2.692872763,0,0.604069806
1.684,-2.759110689,0,0.604069806
1.688,-2.837838888,0,0.604069806
1.694,-2.889849186,0,0.604069806
1.699,-2.967126131,0,0.604069806
1.705,-3.030823946,0,0.604069806
1.712,-3.106392384,0,0.604069806
1.718,-3.193312645,0,0.604069806
1.724,-3.266710758,0,0.604069806
1.729,-3.3390522,0,0.604069806
1.735,-3.398504496,0,0.604069806
1.741,-3.468818903,0,0.604069806
1.748,-3.526533604,0,0.604069806
1.754,-3.617160082,0,0.604069806
1.759,-3.683701038,0,0.604069806
1.765,-3.738188744,0,0.604069806
1.769,-3.802389145,0,0.603763021
1.775,-3.844455719,0,0.603149451
1.78,-3.906430721,0,0.602535881
1.785,-3.957023859,0,0.601615526
1.79,-3.996795893,0,0.6000816
1.796,-4.045617104,0,0.598547674
1.802,-4.11226368,0,0.596093394
1.809,-4.167773247,0,0.593639113
1.815,-4.239408493,0,0.590878047
1.82,-4.282770634,0,0.587810196
1.827,-4.325026989,0,0.583821989
1.833,-4.382293701,0,0.580754138
1.838,-4.429590225,0,0.577686287
1.844,-4.467719078,0,0.574004866
1.849,-4.504662514,0,0.57001666
1.855,-4.54740572,-1.533980846,0.566028453
1.86,-4.58838892,-1.533980846,0.563267387
1.865,-4.62117672,-1.533980846,0.560506321
1.869,-4.652707577,0,0.55743847
1.873,-4.677015781,0,0.554984189
1.878,-4.706243992,-1.533980846,0.551916338
1.882,-4.723157406,-1.533980846,0.548541702
1.887,-4.75029707,-1.533980846,0.546087421
1.892,-4.77611351,-1.533980846,0.54179243
1.898,-4.800590992,-1.533980846,0.537497438
1.904,-4.828177929,0,0.532895662
1.911,-4.853794098,0,0.52860067
1.916,-4.881158352,-1.533980846,0.523385323
1.923,-4.899023056,-1.533980846,0.519397117
1.927,-4.918592453,0,0.515408911
1.933,-4.936103344,-1.533980846,0.511420704
1.938,-4.949109554,0,0.507739283
1.942,-4.960661888,0,0.504671432
1.946,-4.968849182,-1.533980846,0.500990011
1.951,-4.976094246,-1.533980846,0.497615374
1.955,-4.983816147,-1.533980846,0.493933953
1.961,-4.988921165,-1.533980846,0.489945717
1.966,-4.993953705,0,0.486264296
1.97,-4.998002052,-1.533980846,0.483196445
1.974,-4.999488354,-1.533980846,0.479821808
1.978,-4.999999523,-1.533980846,0.477060742
1.982,-4.999531746,-1.533980846,0.473992891
1.986,-4.998081684,-1.533980846,0.471231825
1.99,-4.995645046,-1.533980846,0.467857159
1.995,-4.992218971,-1.533980846,0.463562168
2,-4.986539841,0,0.459880747
2.006,-4.979304314,-1.533980846,0.454358615
2.013,-4.968559265,0,0.449143268
2.02,-4.9531703,-1.533980846,0.444541461
2.025,-4.937526226,0,0.440553255
2.03,-4.919610977,0,0.436871834
2.036,-4.902943611,-3.067961693,0.431656457
2.041,-4.880853653,0,0.427975036
2.049,-4.860702515,-1.533980846,0.419998593
2.059,-4.825163364,0,0.412328966
2.068,-4.77503109,-1.533980846,0.405579664
2.076,-4.724494934,0,0.399750717
2.083,-4.681647301,-1.533980846,0.394228585
2.09,-4.635708809,0,0.388399638
2.098,-4.579435825,-1.533980846,0.382877506
2.107,-4.526910305,-1.533980846,0.375514663
2.116,-4.45489502,0,0.369378961
2.125,-4.369006157,-1.533980846,0.362016119
2.133,-4.295883179,0,0.356493987
2.141,-4.208979607,0,0.35189221
2.147,-4.127651215,-1.533980846,0.347597219
2.152,-4.064161777,0,0.344529368
2.157,-4.009637356,0,0.340847946
2.162,-3.953656673,0,0.337780095
2.167,-3.896232605,0,0.334405459
2.173,-3.83737874,-1.533980846,0.331030823
2.178,-3.777109146,-1.533980846,0.327042617
2.184,-3.702937841,0,0.323974766
2.189,-3.639606714,-1.533980846,0.320293344
2.196,-3.561808109,-1.533980846,0.316305138
2.202,-3.468595982,0,0.312930502
2.208,-3.400428295,0,0.309555866
2.215,-3.302809715,0,0.306181229
2.221,-3.202692032,0,0.302806593
2.228,-3.114929676,0,0.299431957
2.234,-3.010318995,0,0.297284461
2.238,-2.918792009,0,0.295443751
2.243,-2.856840372,0,0.29360304
2.247,-2.778371334,0,0.291762329
2.251,-2.714787006,0,0.289921619
2.255,-2.650497437,0,0.288387693
2.26,-2.569162607,0,0.286240197
2.265,-2.48677063,0,0.284399487
2.27,-2.420113325,-1.533980846,0.282558776
2.274,-2.335884571,0,0.281331636
2.279,-2.267792463,0,0.27979771
2.283,-2.181814194,0,0.27857057
2.287,-2.11235857,-1.533980846,0.277036644
2.292,-2.042320728,0,0.275195934
2.298,-1.971715212,0,0.273662008
2.304,-1.846835732,0,0.272128083
2.31,-1.738512516,0,0.270287372
2.318,-1.629060388,-1.533980846,0.268753446
2.325,-1.481462479,0,0.267833091
2.332,-1.350851059,0,0.266605951
2.338,-1.237883449,-1.533980846,0.265685595
2.343,-1.104985237,0,0.265072025
2.349,-1.009380341,0,0.264458455
2.354,-0.893964052,0,0.26415167
2.358,-0.797250032,0,0.2635381
2.362,-0.719555259,0,0.2635381
2.367,-0.622062683,0,0.263231314
2.372,-0.543792188,0,0.263231314
2.378,-0.4456397,0,0.263231314
2.382,-0.327444911,0,0.262924529
2.386,-0.24842906,0,0.262924529
2.391,-0.169260547,0,0.262924529
2.396,-0.070115224,0,0.262924529
2.401,0.009324555,0,0.262924529
2.406,0.128643125,0,0.262924529
2.411,0.228177533,0,0.262924529
2.416,0.327762485,0,0.262924529
2.422,0.427357852,0,0.262924529
2.427,0.546829164,0,0.262924529
2.433,0.646304965,0,0.262924529
2.437,0.765514255,0,0.262924529
2.442,0.844856203,0,0.262924529
2.446,0.943849027,0,0.262924529
2.451,1.022869587,0,0.262924529
2.455,1.121393323,0,0.262924529
2.459,1.199984312,0,0.262924529
2.463,1.278349519,0,0.262924529
2.467,1.356467128,0,0.262924529
2.471,1.434315681,0,0.262924529
2.477,1.511873484,0,0.262924529
2.481,1.60837853,0,0.262924529
2.485,1.704352617,0,0.262924529
2.49,1.799753308,0,0.262924529
2.494,1.875632286,0,0.262924529
2.498,1.951095223,0,0.262924529
2.502,2.026120186,0,0.262924529
2.507,2.10068512,0,0.262924529
2.512,2.193211794,0,0.262924529
2.518,2.284943104,0,0.262924529
2.525,2.3939116,0,0.262924529
2.532,2.519418955,0,0.262924529
2.538,2.625522614,0,0.262924529
2.543,2.747488499,0,0.262924529
2.549,2.816260338,0,0.262924529
2.554,2.918103456,0,0.262924529
2.564,3.018304586,0,0.262924529
2.573,3.181465864,0,0.262924529
2.582,3.323973417,0,0.262924529
2.59,3.447000504,0,0.262924529
2.599,3.581093788,0,0.262924529
2.608,3.696278334,0,0.262924529
2.616,3.821147203,0,0.262924529
2.625,3.940815687,0,0.263844885
2.634,4.055069923,1.533980846,0.26476524
2.641,4.151916981,1.533980846,0.266299166
2.649,4.232903481,0,0.268446661
2.655,4.331724167,0,0.270594157
2.66,4.394203663,0,0.273048438
2.666,4.444144726,1.533980846,0.277036644
2.672,4.501477718,1.533980846,0.281638421
2.678,4.555929661,0,0.285626627
2.683,4.607450485,1.533980846,0.289614834
2.688,4.64811039,1.533980846,0.293296255
2.693,4.686673641,1.533980846,0.296364106
2.698,4.723114491,1.533980846,0.300965883
2.705,4.757406235,0,0.305567659
2.714,4.807744026,0,0.310169436
2.721,4.852423191,1.533980846,0.314464427
2.729,4.886804104,0,0.319372989
2.736,4.91672802,0,0.324895121
2.743,4.945400715,0,0.329496897
2.748,4.965600491,1.533980846,0.333485104
2.753,4.977209091,1.533980846,0.338700451
2.759,4.986451626,1.533980846,0.343609012
2.765,4.994399071,0,0.347290434
2.77,4.998897552,0,0.351585425
2.775,4.999997616,0,0.354960061
2.779,4.998679638,1.533980846,0.358334698
2.784,4.995877743,1.533980846,0.362016119
2.789,4.990185261,0,0.365390755
2.794,4.98205328,0,0.369072176
2.798,4.971476078,0,0.372753598
2.803,4.958449364,0,0.376128234
2.808,4.946262836,0,0.380423225
2.814,4.928821087,1.533980846,0.385638632
2.82,4.904651165,1.533980846,0.389933623
2.825,4.87694788,0,0.3945354
2.83,4.851165771,0,0.398830391
2.836,4.822936535,0,0.403125383
2.841,4.785838127,1.533980846,0.407113589
2.846,4.752243519,1.533980846,0.410488225
2.85,4.716222286,0,0.413862861
2.854,4.6856637,1.533980846,0.416930712
2.858,4.653563023,0,0.419998564
2.863,4.619925976,1.533980846,0.4233732
2.867,4.575728893,1.533980846,0.426441051
2.871,4.538658619,0,0.429508902
2.876,4.500074863,1.533980846,0.432883538
2.879,4.449728489,0,0.435337849
2.884,4.407769203,0,0.438712485
2.889,4.375324249,1.533980846,0.442700691
2.893,4.307945251,0,0.446688898
2.9,4.24928093,0,0.451904244
2.907,4.175899029,0,0.455892451
2.913,4.086223125,1.533980846,0.459880657
2.918,4.005924225,0,0.462948538
2.924,3.936622381,1.533980846,0.467243559
2.93,3.85063982,0,0.470618196
2.935,3.761629343,0,0.473992832
2.943,3.68517971,0,0.478901393
2.95,3.558647633,1.533980846,0.483196385
2.957,3.427054882,0,0.486877806
2.964,3.325129271,1.533980846,0.490866013
2.97,3.202813864,0,0.493627079
2.975,3.095135212,0,0.496388145
2.98,3.003457308,1.533980846,0.498842455
2.985,2.89117384,0,0.500989951
2.99,2.814977646,0,0.503137447
2.995,2.718265533,0,0.505284942
3,2.619967222,0,0.507432438
3.005,2.520130634,1.533980846,0.509273149
3.01,2.418804646,0,0.510807074
3.015,2.316039562,0,0.513261355
3.021,2.211886406,0,0.515102066
3.026,2.106397867,0,0.517249562
3.032,1.978123903,1.533980846,0.519397057
3.038,1.826263547,0,0.520930983
3.047,1.716416836,0,0.523385264
3.058,1.493537903,0,0.525225974
3.065,1.266803026,0,0.526453115
3.073,1.106052399,0,0.52737347
3.08,0.920530736,1.533980846,0.528600611
3.085,0.756812572,0,0.528907396
3.091,0.639181018,0,0.529520966
3.097,0.473669112,0,0.529827751
3.103,0.354944646,0,0.530134536
3.11,0.212028772,0,0.530134536
3.118,0.044824902,0,0.530134536
3.126,-0.122706145,0,0.530134536
3.133,-0.338280678,0,0.530134536
3.141,-0.505849659,0,0.530134536
3.149,-0.673120975,0,0.530134536
3.156,-0.887435734,0,0.530134536
3.164,-1.053299785,0,0.530134536
3.169,-1.218228102,0,0.530134536
3.173,-1.358702183,0,0.530134536
3.177,-1.451828957,0,0.530134536
3.182,-1.544494867,0,0.530134536
3.186,-1.636663437,0,0.530134536
3.192,-1.751119137,0,0.530134536
3.198,-1.864669442,0,0.530134536
3.204,-2.021983385,0,0.530134536
3.21,-2.155153275,0,0.530134536
3.216,-2.286652088,0,0.530134536
3.222,-2.416358709,0,0.530134536
3.227,-2.544152498,0,0.530134536
3.232,-2.649099827,0,0.530134536
3.237,-2.752566814,0,0.530134536
3.242,-2.85448575,0,0.530134536
3.248,-2.954788685,0,0.530134536
3.254,-3.072924614,0,0.530134536
3.258,-3.188522816,0,0.530134536
3.263,-3.264122248,0,0.530134536
3.267,-3.35691452,0,0.530134536
3.271,-3.429742575,0,0.530134536
3.275,-3.501286268,0,0.530134536
3.279,-3.571513653,0,0.530134536
3.283,-3.640393019,0,0.530134536
3.287,-3.724549055,0,0.530134536
3.291,-3.773983479,0,0.530134536
3.296,-3.838634014,0,0.530134536
3.301,-3.91737628,0,0.530134536
3.306,-3.993764877,0,0.530134536
3.311,-4.067743301,0,0.530134536
3.316,-4.139256954,0,0.530134536
3.321,-4.20825243,0,0.530134536
3.326,-4.274677277,0,0.529827751
3.331,-4.338480949,0,0.529214181
3.337,-4.411515236,0,0.528600611
3.341,-4.469379902,0,0.52798704
3.346,-4.51367569,0,0.526453115
3.352,-4.566514015,0,0.524919189
3.357,-4.626149178,-1.533980846,0.522771693
3.362,-4.672654629,0,0.520930983
3.366,-4.716216564,-1.533980846,0.518783487
3.37,-4.748921394,-1.533980846,0.516329206
3.374,-4.779699326,-1.533980846,0.513874925
3.378,-4.808532715,0,0.511420645
3.382,-4.835404396,-1.533980846,0.508352793
3.386,-4.86029768,0,0.505284942
3.39,-4.883197308,0,0.501910306
3.394,-4.90408802,-1.533980846,0.49853567
3.399,-4.922955513,-1.533980846,0.494240679
3.404,-4.943675041,0,0.490252472
3.409,-4.96118927,-1.533980846,0.486571051
3.414,-4.975475311,0,0.48288963
3.42,-4.986513138,0,0.479514993
3.424,-4.995445728,-1.533980846,0.476140357
3.429,-4.998774529,0,0.472458936
3.434,-4.999968052,0,0.4690843
3.439,-4.997854233,-1.533980846,0.465402849
